3.977553100585937500e+02,-inf
3.985468539347639307e+02,-6.666666666666667407e-01
3.993383214673958719e+02,-1.333333333333333481e+00
4.001297126564895734e+02,1.111111111111111605e-01
4.009210275020450354e+02,-3.785830178474780539e-03
4.017122660040622577e+02,1.503369621565575631e-02
4.025034281625412405e+02,1.166920345002542270e-02
4.032945139774819836e+02,-4.856726566293545488e-04
4.040855234488844872e+02,1.431980906921204166e-03
4.048764565767487511e+02,-2.472014925373144933e-02
4.056673133610747755e+02,-1.033707865168542739e-02
4.064580938018625602e+02,-1.744439598778901868e-02
4.072487978991121054e+02,-3.388394747988243694e-03
4.080394256528234109e+02,-8.620689655172375510e-03
4.088299770629964769e+02,-3.244120032441211166e-02
4.096204521296313033e+02,-1.047729918509898717e-02
4.104108508527278900e+02,-2.252252252252340270e-03
4.112011732322862372e+02,2.514367816091933605e-03
4.119914192683063447e+02,-3.203987184051237946e-03
4.127815889607882127e+02,-2.759572266298748744e-03
4.135716823097318411e+02,-1.363326516700791302e-03
4.143616993151372299e+02,-9.980039920158834121e-04
4.151516399770043790e+02,-9.749756256093533580e-03
4.159415042953332886e+02,-3.802281368821214258e-03
4.167312922701239586e+02,1.176106468585580433e-02
4.175210039013763890e+02,-7.628928898382625334e-03
4.183106391890905797e+02,-3.278688524590123166e-03
4.191001981332665309e+02,-6.081668114682914350e-03
4.198896807339042425e+02,1.966844619275098793e-03
4.206790869910037145e+02,6.308283049917706720e-03
4.214684169045649469e+02,-4.805125467165050068e-03
4.222576704745879397e+02,-1.562093204894532406e-03
4.230468477010726929e+02,-4.045512010113716528e-03
4.238359485840192065e+02,1.975308641975259683e-03
4.246249731234274805e+02,6.506024096385565336e-03
4.254139213192975149e+02,-9.480919649205166166e-04
4.262027931716293097e+02,-7.170946102243780373e-03
4.269915886804228649e+02,-8.374830239927577580e-03
4.277803078456781805e+02,6.576063130206089014e-03
4.285689506673952565e+02,1.940491591203130639e-03
4.293575171455740929e+02,3.194888178913779520e-03
4.301460072802146897e+02,4.357750570657792366e-03
4.309344210713170469e+02,-6.947282386595921011e-03
4.317227585188811645e+02,1.199520191923264534e-03
4.325110196229070425e+02,-2.159403219473832181e-03
4.332992043833946809e+02,-4.361016306408727061e-03
4.340873128003440797e+02,-5.598059339428917980e-03
4.348753448737552390e+02,-1.262580054894790749e-02
4.356633006036281586e+02,-1.403635054885721267e-02
4.364511799899628386e+02,-3.067047075606277318e-02
4.372389830327592790e+02,-1.623931623931618162e-02
4.380267097320174798e+02,-2.161263507896915570e-03
4.388143600877374411e+02,-1.619695497245832172e-04
4.396019340999191627e+02,-3.970144513260276398e-03
4.403894317685626447e+02,1.698317122124426426e-03
4.411768530936678872e+02,9.858941301380208522e-03
4.419641980752348900e+02,1.779359430605031989e-03
4.427514667132636532e+02,-7.783815538258131994e-03
4.435386590077541769e+02,9.431266076021738165e-03
4.443257749587064609e+02,8.430518476886250667e-04
4.451128145661205053e+02,-4.409535620779836407e-03
4.458997778299963102e+02,6.340213139079953208e-03
4.466866647503338754e+02,4.150488686571196517e-03
4.474734753271332011e+02,2.088500195796871850e-03
4.482602095603942871e+02,-1.074016563147006664e-02
4.490468674501171336e+02,-2.523659305993630753e-03
4.498334489963017404e+02,2.232973576479335698e-03
4.506199541989481077e+02,-1.437066402378595065e-02
4.514063830580562353e+02,-6.361781298763746761e-03
4.521927355736261234e+02,-2.370510845086659657e-04
4.529790117456577718e+02,7.018364721019798580e-04
4.537652115741511807e+02,-3.436819796082124512e-03
4.545513350591063499e+02,1.806825786303811743e-02
4.553373822005232796e+02,8.371888081075140597e-03
4.561233529984019697e+02,-2.949852507374561839e-03
4.569092474527424201e+02,-1.837837837837863475e-03
4.576950655635446310e+02,2.753070732740336979e-03
4.584808073308086023e+02,-4.283773900323861739e-03
4.592664727545343339e+02,-5.585436491518436242e-03
4.600520618347218260e+02,-7.023615635179059069e-03
4.608375745713710785e+02,-3.988433542725378089e-04
4.616230109644820914e+02,-1.376868607395831390e-03
4.624083710140548646e+02,7.757199650926249745e-04
4.631936547200893983e+02,9.571209800918190069e-05
4.639788620825856924e+02,-6.819473385110796926e-03
4.647639931015437469e+02,-5.505785740948176965e-03
4.655490477769635618e+02,-2.672318466642176205e-03
4.663340261088451371e+02,-1.091901728844435482e-03
4.671189280971884727e+02,1.250334911136907756e-03
4.679037537419935688e+02,-1.150035385704128998e-03
4.686885030432604253e+02,1.656928577657645896e-03
4.694731760009890422e+02,-3.879644796965342479e-03
4.702577726151794195e+02,-1.964972234087980496e-03
4.710422928858315572e+02,-1.352493660185860591e-03
4.718267368129454553e+02,7.388958073889617673e-03
4.726111043965211138e+02,-4.472420076196748084e-03
4.733953956365585327e+02,3.511924207775241058e-03
4.741796105330577120e+02,-2.926353438465367773e-03
4.749637490860186517e+02,6.866267465069908482e-03
4.757478112954413518e+02,2.859639367701949375e-03
4.765317971613258123e+02,5.488904571473440797e-04
4.773157066836720333e+02,9.339248190520788029e-04
4.780995398624800146e+02,2.314993440851731421e-04
4.788832966977497563e+02,-4.351477212001020334e-03
4.796669771894812584e+02,-4.022159823935611556e-03
4.804505813376745209e+02,1.197425535099494454e-03
4.812341091423295438e+02,-5.848386141545702799e-03
4.820175606034463271e+02,1.831501831501824995e-03
4.828009357210248709e+02,4.713218765861837412e-03
4.835842344950651750e+02,-1.650638725419817376e-03
4.843674569255672395e+02,1.352601979070278126e-03
4.851506030125310645e+02,-4.080484029829856141e-03
4.859336727559566498e+02,1.957768144315474856e-03
4.867166661558439955e+02,6.166917911470504166e-03
4.874995832121931016e+02,-2.797679972705635620e-03
4.882824239250039682e+02,-5.841200842219729239e-03
4.890651882942765951e+02,-4.081086505653308549e-03
4.898478763200109825e+02,3.356809056802467772e-03
4.906304880022071302e+02,6.518479890493811268e-05
4.914130233408650383e+02,-3.865730300882663784e-04
4.921954823359847069e+02,4.033548882770965349e-03
4.929778649875661358e+02,-4.689777552443041841e-03
4.937601712956093252e+02,3.119735446434068749e-04
4.945424012601142749e+02,-2.300279763755019857e-03
4.953245548810809851e+02,1.534495457893414461e-03
4.961066321585094556e+02,-2.122498483929646795e-03
4.968886330923996866e+02,9.671179883945502098e-04
4.976705576827516779e+02,-6.110345653866922078e-03
4.984524059295654297e+02,-3.082943024841355850e-03
4.992341778328409418e+02,-7.055918151349427347e-03
5.000158733925782144e+02,3.069972196478198967e-03
5.007974926087772474e+02,-4.616538750072951558e-04
5.015790354814380407e+02,1.257286547033942270e-03
5.023605020105605945e+02,-6.207996354937961314e-03
5.031418921961449087e+02,-7.443604750269949832e-03
5.039232060381909832e+02,1.569154898004909704e-03
5.047044435366988182e+02,-1.339136257114237338e-03
5.054856046916684136e+02,8.648888396074694285e-03
5.062666895030997694e+02,-1.660853678790985555e-03
5.070476979709928855e+02,6.597031335898728699e-04
5.078286300953477621e+02,2.732091142560566510e-03
5.086094858761643991e+02,-3.802694480661283905e-04
5.093902653134427965e+02,3.801455414358390072e-04
5.101709684071829543e+02,-2.494441733094765468e-03
5.109515951573848724e+02,-1.397624039133571472e-03
5.117321455640485510e+02,2.238925315848350195e-03
5.125126196271739900e+02,1.595829565402828720e-04
5.132930173467611894e+02,5.383438011294705561e-03
5.140733387228101492e+02,-5.313272660318890672e-03
5.148535837553208694e+02,2.563968395165039382e-03
5.156337524442933500e+02,2.437000933319555251e-03
5.164138447897275910e+02,-3.310401903481086094e-03
5.171938607916235924e+02,7.210919392222070456e-04
5.179738004499813542e+02,3.553587062883001302e-03
5.187536637648008764e+02,3.113515720702286771e-03
5.195334507360821590e+02,2.287864151710783389e-03
5.203131613638252020e+02,-2.581494229601188906e-03
5.210927956480300054e+02,1.349392773252078293e-03
5.218723535886965692e+02,3.127792672028562038e-03
5.226518351858248934e+02,1.760046934584869049e-03
5.234312404394149780e+02,-5.157147027342601220e-03
5.242105693494668230e+02,-1.968409429161210866e-03
5.249898219159804285e+02,-3.183956660172126973e-03
5.257689981389557943e+02,3.563056727613700403e-03
5.265480980183929205e+02,1.862110702481212243e-03
5.273271215542918071e+02,-7.362753669872823536e-04
5.281060687466524541e+02,3.649635036496401419e-03
5.288849395954748616e+02,5.550291051847788815e-03
5.296637341007590294e+02,2.016671148158066806e-03
5.304424522625049576e+02,2.487783207463345470e-03
5.312210940807126462e+02,4.004576659038860953e-03
5.319996595553820953e+02,2.140485759217214401e-03
5.327781486865133047e+02,-3.075057386634272305e-03
5.335565614741062745e+02,5.872519182133828508e-03
5.343348979181610048e+02,4.685237243376993987e-04
5.351131580186774954e+02,-4.667543599100376639e-03
5.358913417756557465e+02,-7.147061296561840749e-04
5.366694491890957579e+02,4.135165615471336764e-03
5.374474802589975297e+02,-2.376287155542611274e-03
5.382254349853610620e+02,-5.434331701650974011e-03
5.390033133681863546e+02,-8.978071990070279895e-03
5.397811154074734077e+02,-1.636594247371281341e-03
5.405588411032222211e+02,-8.949637946464861216e-04
5.413364904554327950e+02,1.861895895733822748e-03
5.421140634641051292e+02,-3.627715748317106303e-03
5.428915601292392239e+02,-1.932056029624762417e-03
5.436689804508350790e+02,-2.558260382939492317e-03
5.444463244288926944e+02,-3.753244160511037819e-03
5.452235920634120703e+02,-5.948604060914686187e-04
5.460007833543932065e+02,-4.478262592636728101e-03
5.467778983018361032e+02,-7.520284979220193122e-03
5.475549369057407603e+02,2.316723603094206219e-03
5.483318991661071777e+02,-2.746067239417726569e-03
5.491087850829353556e+02,-1.518869026755353957e-03
5.498855946562252939e+02,-1.321209295096048564e-03
5.506623278859769925e+02,1.350986219940564226e-03
5.514389847721904516e+02,1.997234598248631698e-03
5.522155653148656711e+02,-1.152737752161403506e-03
5.529920695140026510e+02,6.882575612739971760e-04
5.537684973696013913e+02,-7.595609737576225484e-05
5.545448488816618919e+02,-5.308459409243404536e-04
5.553211240501841530e+02,-3.771023455765964982e-03
5.560973228751681745e+02,4.534212695795569736e-03
5.568734453566139564e+02,1.308606894488861805e-03
5.576494914945214987e+02,-2.157256564754961303e-03
5.584254612888908014e+02,-7.048262046964737237e-04
5.592013547397218645e+02,1.840739240879241123e-04
5.599771718470146880e+02,-2.606556775212043320e-03
5.607529126107692719e+02,4.398720372255304767e-03
5.615285770309856161e+02,-1.087981431784346142e-04
5.623041651076637208e+02,3.253208024579512525e-04
5.630796768408035859e+02,8.954796188839209137e-04
5.638551122304052114e+02,2.279608192341964212e-03
5.646304712764685974e+02,1.380530973451365995e-03
5.654057539789937437e+02,-1.580444631756439122e-03
5.661809603379806504e+02,-2.735978112175185828e-03
5.669560903534293175e+02,2.121886739947176359e-03
5.677311440253397450e+02,1.144760120720178520e-03
5.685061213537119329e+02,-2.273275238521721420e-03
5.692810223385458812e+02,3.828274541974319156e-03
5.700558469798415899e+02,1.495937170638783620e-03
5.708305952775990590e+02,-3.051468095205400743e-04
5.716052672318182886e+02,-2.056018065994758004e-03
5.723798628424992785e+02,1.203852327447796355e-03
5.731543821096420288e+02,-3.594727732658675734e-03
5.739288250332465395e+02,-5.132960227837157774e-03
5.747031916133128107e+02,-3.333003333003237145e-03
5.754774818498408422e+02,3.001043841336148432e-03
5.762516957428306341e+02,9.748488984206993280e-05
5.770258332922821864e+02,6.457236948309574842e-04
5.777998944981954992e+02,1.287415513356982011e-03
5.785738793605705723e+02,3.447945599080570744e-03
5.793477878794074059e+02,-4.752487879561062556e-03
5.801216200547059998e+02,-5.690080293354604635e-04
5.808953758864663541e+02,-2.172954588398390285e-03
5.816690553746884689e+02,-6.579359608998025521e-04
5.824426585193723440e+02,-1.371400074803741376e-03
5.832161853205179796e+02,1.763886739904019230e-03
5.839896357781253755e+02,-3.302673004506484489e-03
5.847630098921945319e+02,6.135345726732133187e-04
5.855363076627254486e+02,-1.982009452660360438e-03
5.863095290897181258e+02,3.236539624924428260e-03
5.870826741731725633e+02,1.898848634637406718e-03
5.878557429130887613e+02,4.781400352628306649e-03
5.886287353094667196e+02,-2.389200812327185730e-04
5.894016513623064384e+02,3.193187865886071286e-03
5.901744910716079175e+02,-1.799091606205394100e-03
5.909472544373711571e+02,-2.349624060150379279e-03
5.917199414595961571e+02,2.627813950771828999e-04
5.924925521382829174e+02,-2.172338884866009678e-03
5.932650864734314382e+02,2.994443004808333697e-03
5.940375444650417194e+02,-4.402370950106426761e-03
5.948099261131137609e+02,-1.086894342428923466e-03
5.955822314176475629e+02,2.844060180313690012e-04
5.963544603786431253e+02,-1.190442447776440815e-03
5.971266129961004481e+02,-1.745642931553881283e-03
5.978986892700195312e+02,1.289526799730933426e-03
5.986706892004003748e+02,-3.627738244733613726e-04
5.994426127872429788e+02,4.354941610496210203e-03
6.002144600305473432e+02,2.485089463220679917e-03
6.009862309303134680e+02,-1.709825983839285968e-03
6.017579254865413532e+02,-9.051759607208165193e-04
6.025295436992309988e+02,-2.726727381796578698e-04
6.033010855683824047e+02,4.339689169763349952e-04
6.040725510939955711e+02,4.043671653861657944e-03
6.048439402760704979e+02,-5.694545650824389682e-03
6.056152531146071851e+02,-2.629954646700571885e-03
6.063864896096056327e+02,-5.732040499276891410e-03
6.071576497610658407e+02,1.857601571000233598e-03
6.079287335689878091e+02,3.140670361572950320e-03
6.086997410333715379e+02,9.457010008668831347e-04
6.094706721542170271e+02,8.895167830886840932e-04
6.102415269315242767e+02,-4.695693006027124028e-04
6.110123053652932867e+02,-4.470435347628365363e-03
6.117830074555240571e+02,-2.577718203846668388e-04
6.125536332022165880e+02,-1.538658802411330129e-04
6.133241826053708792e+02,-2.962433281405552066e-03
6.140946556649869308e+02,1.849365389000046100e-03
6.148650523810647428e+02,-1.768748736608038996e-03
6.156353727536043152e+02,-2.087262668175604574e-03
6.164056167826056480e+02,-3.120631116436900498e-03
6.171757844680687413e+02,1.907167979392720980e-03
6.179458758099935949e+02,-3.687662418017545463e-03
6.187158908083802089e+02,-7.396267350410434815e-03
6.194858294632285833e+02,1.629337807932729199e-03
6.202556917745387182e+02,8.017687504555670586e-04
6.210254777423106134e+02,-7.998836532867592553e-04
6.217951873665442690e+02,3.130719583854801868e-04
6.225648206472396851e+02,-1.914791766395307349e-03
6.233343775843968615e+02,1.092014053746037661e-03
6.241038581780157983e+02,-3.006913533478483558e-03
6.248732624280964956e+02,1.577249935262092784e-03
6.256425903346389532e+02,4.812409475307144469e-03
6.264118418976431713e+02,-2.684720438893339889e-03
6.271810171171091497e+02,3.375332331522318263e-03
6.279501159930368885e+02,2.716202840503667559e-03
6.287191385254263878e+02,3.663423010875632713e-04
6.294880847142776474e+02,3.078677309008015506e-03
6.302569545595906675e+02,2.655530084659241119e-03
6.310257480613654479e+02,-9.020182658698860934e-04
6.317944652196019888e+02,-9.233818296472406928e-04
6.325631060343002900e+02,7.612565210577404429e-04
6.333316705054603517e+02,4.739231043075831096e-03
6.341001586330821738e+02,8.343818290179494390e-03
6.348685704171657562e+02,1.986009665246868394e-04
6.356369058577110991e+02,-3.958654057620858424e-04
6.364051649547182024e+02,-1.533876763957220390e-04
6.371733477081870660e+02,-1.592599864738142301e-03
6.379414541181176901e+02,1.741894746010164141e-04
6.387094841845100746e+02,-1.541668476136681676e-03
6.394774379073642194e+02,-1.487485717981407163e-03
6.402453152866801247e+02,-1.997637203307922604e-03
6.410131163224577904e+02,3.418730369009193026e-04
6.417808410146972165e+02,1.492314579913944783e-04
6.425484893633984029e+02,-1.629353760209895086e-03
6.433160613685613498e+02,-3.165224730956595067e-04
6.440835570301860571e+02,-5.333277119608847983e-03
6.448509763482725248e+02,4.389173372348231794e-03
6.456183193228207529e+02,3.345663106271601350e-03
6.463855859538307413e+02,-8.107265357031323560e-04
6.471527762413024902e+02,-1.448225923244006452e-03
6.479198901852359995e+02,4.401118789075342264e-03
6.486869277856312692e+02,1.984817171737818242e-03
6.494538890424882993e+02,-8.181966944853513724e-04
6.502207739558070898e+02,-1.224264930930196726e-04
6.509875825255876407e+02,2.758229054698135840e-03
6.517543147518299520e+02,1.432751488245398441e-03
6.525209706345340237e+02,-5.041745654015272748e-04
6.532875501736998558e+02,-7.020359041218782181e-04
6.540540533693274483e+02,-2.120593766254508239e-03
6.548204802214168012e+02,3.633692069417437942e-03
6.555868307299679145e+02,-1.622669885621652597e-03
6.563531048949807882e+02,-3.297918559184820353e-03
6.571193027164554223e+02,-1.164052481010147133e-03
6.578854241943918169e+02,-1.154824818947020049e-03
6.586514693287899718e+02,1.791451660013598790e-03
6.594174381196498871e+02,-9.910225020404173080e-04
6.601833305669715628e+02,-1.929980314201440450e-04
6.609491466707549989e+02,1.098922284987202680e-03
6.617148864310001954e+02,2.882398155265031292e-04
6.624805498477071524e+02,2.080510011261527126e-03
6.632461369208758697e+02,2.055889743394545555e-03
6.640116476505063474e+02,9.506787846524922259e-05
6.647770820365985855e+02,-1.801221038261635599e-03
6.655424400791525841e+02,-3.584905660376502823e-04
6.663077217781683430e+02,6.966541771007417339e-04
6.670729271336458623e+02,-1.787764165678717987e-03
6.678380561455851421e+02,-2.193023560945528416e-03
6.686031088139861822e+02,2.762740339742442153e-03
6.693680851388489828e+02,2.416895961924625524e-03
6.701329851201735437e+02,1.414269232200671134e-03
6.708978087579598650e+02,2.384781764738552745e-03
6.716625560522079468e+02,2.033309303314245753e-04
6.724272270029177889e+02,-3.863276794584535878e-04
6.731918216100893915e+02,-1.102454799353225212e-03
6.739563398737227544e+02,-2.493582691602602708e-03
6.747207817938178778e+02,4.923772704062967520e-04
6.754851473703747615e+02,-1.497115314394115160e-03
6.762494366033934057e+02,-4.726928950622433234e-04
6.770136494928738102e+02,9.425754060324864625e-04
6.777777860388159752e+02,1.196302338227317463e-03
6.785418462412199005e+02,-2.850140691658342718e-03
6.793058301000855863e+02,1.716071460828416662e-03
6.800697376154130325e+02,8.288437629506706372e-04
6.808335687872022390e+02,-6.220277380973859849e-03
6.815973236154532060e+02,1.562387759500016848e-03
6.823610021001659334e+02,2.862254025044475014e-04
6.831246042413404211e+02,-1.108984563650272648e-03
6.838881300389766693e+02,-2.088465245796200520e-03
6.846515794930746779e+02,7.666387348678194158e-04
6.854149526036344469e+02,-2.132575084414778388e-04
6.861782493706559762e+02,-1.528046765338242352e-03
6.869414697941392660e+02,-5.135743000337367192e-04
6.877046138740843162e+02,-8.142890017879267361e-04
6.884676816104911268e+02,-9.905017952844819007e-04
6.892306730033596978e+02,-9.688215606835637317e-04
6.899935880526900291e+02,2.816951002658774073e-04
6.907564267584821209e+02,-1.232546264504641442e-04
6.915191891207359731e+02,-3.059179296037051188e-03
6.922818751394515857e+02,1.750087504370778646e-05
6.930444848146289587e+02,2.184398154620459387e-03
6.938070181462680921e+02,1.173955705074281042e-03
6.945694751343689859e+02,2.148058888248538523e-03
6.953318557789316401e+02,2.246760484882259767e-03
6.960941600799560547e+02,2.299731697968598887e-03
6.968563880374422297e+02,1.462370084086228594e-03
6.976185396513901651e+02,-1.827421768944237357e-03
6.983806149217998609e+02,-2.947653147920004102e-04
6.991426138486713171e+02,-5.540118096561297278e-03
6.999045364320045337e+02,2.113981736584058524e-03
7.006663826717995107e+02,1.297959607497012335e-03
7.014281525680562481e+02,-4.888195527821048714e-03
7.021898461207747459e+02,1.226548733717969242e-03
7.029514633299550042e+02,2.074545328815458056e-03
7.037130041955970228e+02,-9.149604668023947340e-04
7.044744687177008018e+02,-2.723762239691174258e-03
7.052358568962663412e+02,3.439676670391467184e-05
7.059971687312936410e+02,-3.608433424402424095e-04
7.067584042227827013e+02,3.064911049089902306e-03
7.075195633707335219e+02,-3.768672057009592180e-04
7.082806461751461029e+02,1.573510296230429262e-03
7.090416526360204443e+02,6.136328770859345028e-04
7.098025827533565462e+02,3.419879538571479749e-03
7.105634365271544084e+02,-3.181390575557996314e-03
7.113242139574140310e+02,2.127949337782153449e-03
7.120849150441354141e+02,-3.879464361675077910e-03
7.128455397873185575e+02,8.658743633276344553e-04
7.136060881869634613e+02,7.792383791841439589e-04
7.143665602430701256e+02,-7.106959744149765612e-04
7.151269559556385502e+02,1.909461126413103393e-03
7.158872753246687353e+02,-1.009438247614458106e-04
7.166475183501606807e+02,8.397715821296669603e-04
7.174076850321143866e+02,3.606293401321791769e-03
7.181677753705298528e+02,-1.340190642118432862e-04
7.189277893654070795e+02,-2.679169457468155713e-03
7.196877270167460665e+02,2.167280729540088657e-03
7.204475883245468140e+02,-1.732524821749903410e-03
7.212073732888093218e+02,4.993342210390938618e-05
7.219670819095335901e+02,5.822367873837830388e-04
7.227267141867196187e+02,-1.656671415783961265e-05
7.234862701203674078e+02,7.265881731260970255e-04
7.242457497104769573e+02,-3.633961017508458013e-04
7.250051529570482671e+02,-1.719150343003628123e-03
7.257644798600813374e+02,2.363949766067463543e-03
7.265237304195761681e+02,-1.309607608819263191e-04
7.272829046355327591e+02,1.519707170403283847e-03
7.280420025079511106e+02,1.078114280113728896e-03
7.288010240368312225e+02,5.533043662223624537e-04
7.295599692221730947e+02,-1.151569215797509926e-03
7.303188380639767274e+02,-1.874444534216701541e-03
7.310776305622421205e+02,1.301413881748092471e-03
7.318363467169692740e+02,5.983413272590221155e-03
7.325949865281581879e+02,2.895027270837013944e-03
7.333535499958088621e+02,-2.254124568359161529e-03
7.341120371199212968e+02,-1.337856562664274662e-03
7.348704479004954919e+02,1.558598533645039197e-03
7.356287823375314474e+02,-9.220252762101033284e-04
7.363870404310291633e+02,2.505870671857035603e-03
7.371452221809886396e+02,1.882677795383980168e-04
7.379033275874098763e+02,5.303798455659203270e-04
7.386613566502928734e+02,-1.104439535824175422e-03
7.394193093696376309e+02,2.268343492014546214e-03
7.401771857454441488e+02,8.284495719677043013e-04
7.409349857777124271e+02,-2.508933323196238518e-03
7.416927094664424658e+02,1.041226534677419657e-03
7.424503568116342649e+02,-2.996209794610127375e-04
7.432079278132878244e+02,7.434280956342131930e-05
7.439654224714031443e+02,-3.260115948015229748e-03
7.447228407859802246e+02,-1.003986846317195258e-03
7.454801827570190653e+02,-5.613934072261628216e-04
7.462374483845196664e+02,2.421100603851034094e-04
7.469946376684820279e+02,-9.460070032756284775e-04
7.477517506089061499e+02,7.812826987736443130e-04
7.485087872057920322e+02,-1.938091049043411118e-03
7.492657474591396749e+02,6.379888419824064627e-04
7.500226313689490780e+02,-1.370451980437392692e-03
7.507794389352202415e+02,-2.390596985191173474e-04
7.515361701579531655e+02,2.490888591730744395e-04
7.522928250371478498e+02,-1.678827403628346815e-04
7.530494035728042945e+02,5.319148936170359221e-04
7.538059057649224997e+02,-2.069847960258996977e-03
7.545623316135024652e+02,-4.441045125953557715e-04
7.553186811185441911e+02,-1.726569719371573441e-03
7.560749542800476775e+02,-2.365337060531214064e-03
7.568311510980129242e+02,-1.042667353968074195e-03
7.575872715724399313e+02,-1.338950770473745777e-03
7.583433157033286989e+02,5.691843588140343968e-05
7.590992834906792268e+02,1.038676748159939045e-03
7.598551749344915152e+02,2.121586596822044868e-03
7.606109900347655639e+02,-1.583403347767076141e-03
7.613667287915013731e+02,-1.390938724371126867e-03
7.621223912046989426e+02,2.379411826094246507e-03
7.628779772743582726e+02,2.161071891658705724e-04
7.636334870004793629e+02,-1.313250699559453949e-04
7.643889203830622137e+02,-1.440449817708522318e-03
7.651442774221068248e+02,3.919800874115919598e-04
7.658995581176131964e+02,3.050699723984306999e-03
7.666547624695813283e+02,-6.124401913876198478e-04
7.674098904780112207e+02,-2.304626253848862660e-03
7.681649421429028735e+02,-6.792909319313089611e-04
7.689199174642562866e+02,-2.973806564470882208e-03
7.696748164420714602e+02,7.390983000739037578e-04
7.704296390763483942e+02,3.989120580235594460e-04
7.711843853670870885e+02,-1.909354942809082800e-03
7.719390553142875433e+02,1.076397773091875010e-03
7.726936489179497585e+02,1.959635017977912064e-03
7.734481661780737340e+02,-7.221724338950519240e-04
7.742026070946594700e+02,7.790319229969977499e-04
7.749569716677069664e+02,-8.705095497483217315e-04
7.757112598972162232e+02,1.712518424483056023e-03
7.764654717831872404e+02,5.322879086154808093e-04
7.772196073256200179e+02,1.636729897599442651e-03
7.779736665245145559e+02,1.843843239800468936e-04
7.787276493798708543e+02,-3.016313227370837069e-04
7.794815558916889131e+02,2.163187540039634982e-04
7.802353860599687323e+02,-1.396509552455960090e-03
7.809891398847103119e+02,-1.568904477538435316e-03
7.817428173659136519e+02,6.944728134319344548e-04
7.824964185035787523e+02,1.617250673854431220e-03
7.832499432977056131e+02,-5.227690422708874962e-04
7.840033917482942343e+02,-2.289165428731365637e-03
7.847567638553446159e+02,-1.451905626135285843e-04
7.855100596188567579e+02,-5.300864201496224837e-04
7.862632790388306603e+02,-4.162230955793155829e-04
7.870164221152663231e+02,-8.993311224776423529e-04
7.877694888481637463e+02,9.636464381213016850e-05
7.885224792375229299e+02,-2.310927729533451824e-03
7.892753932833438739e+02,1.363726461843461912e-03
7.900282309856265783e+02,2.424309427168092057e-03
7.907809923443710431e+02,2.482939674054884804e-03
7.915336773595772684e+02,1.103305949120891860e-03
7.922862860312452540e+02,-1.110740864156412044e-04
7.930388183593750000e+02,-2.305366292702615283e-03
7.937912743439665064e+02,2.214536121196930551e-03
7.945436539850197732e+02,2.518970507705553530e-03
7.952959572825348005e+02,3.299344844380769359e-04
7.960481842365115881e+02,-1.532167622297020415e-03
7.968003348469501361e+02,-5.517502305529831119e-05
7.975524091138504446e+02,4.072841198354826275e-04
7.983044070372125134e+02,1.620556131233907848e-03
7.990563286170363426e+02,-1.404275237946173149e-04
7.998081738533219323e+02,4.228362918823336258e-04
8.005599427460692823e+02,-8.120402708904350675e-04
8.013116352952783927e+02,7.613515953063254571e-04
8.020632515009492636e+02,6.007364873299447794e-04
8.028147913630818948e+02,2.760374666583964576e-03
8.035662548816762865e+02,1.633122841944834036e-03
8.043176420567324385e+02,-6.972408066057145248e-04
8.050689528882503510e+02,9.437152496516443279e-05
8.058201873762300238e+02,5.405447751255509914e-04
8.065713455206714571e+02,-3.201524237881336887e-04
8.073224273215746507e+02,-1.812129602264844763e-03
8.080734327789396048e+02,-1.869333582577903385e-03
8.088243618927663192e+02,-6.336937303437206737e-04
8.095752146630547941e+02,1.916973068099681043e-03
8.103259910898050293e+02,-1.314432786833741318e-03
8.110766911730170250e+02,1.489522650882424415e-03
8.118273149126907811e+02,-1.166434675770045004e-04
8.125778623088262975e+02,-2.803192524820641296e-04
8.133283333614235744e+02,1.724381182298673210e-04
8.140787280704826117e+02,5.594824393434505438e-04
8.148290464360034093e+02,2.058987638215437066e-03
8.155792884579859674e+02,-9.560079615089644989e-04
8.163294541364302859e+02,7.386615452799061288e-04
8.170795434713363647e+02,-1.662140649873578013e-03
8.178295564627042040e+02,-1.644247482734950694e-04
8.185794931105338037e+02,1.971531091045086725e-04
8.193293534148251638e+02,-5.609987357775292338e-04
8.200791373755782843e+02,-3.148490692272964964e-05
8.208288449927931651e+02,8.587376556461467914e-04
8.215784762664698064e+02,1.177149271882504955e-03
8.223280311966082081e+02,2.054305809294554308e-03
8.230775097832083702e+02,-2.211375949707772293e-04
8.238269120262702927e+02,9.758651877945778708e-04
8.245762379257939756e+02,5.536791982729827311e-05
8.253254874817794189e+02,-9.580951184269270726e-04
8.260746606942266226e+02,-1.143913752037040155e-03
8.268237575631355867e+02,-7.856076675305523338e-05
8.275727780885063112e+02,1.107227028993573725e-03
8.283217222703387961e+02,-1.195123894510485840e-03
8.290705901086330414e+02,6.356925472994490178e-04
8.298193816033890471e+02,-1.452983353864567562e-03
8.305680967546068132e+02,-1.501230065472425323e-03
8.313167355622863397e+02,-3.064351378958551919e-04
8.320652980264276266e+02,4.833559163556211402e-04
8.328137841470306739e+02,9.498192150821926916e-04
8.335621939240954816e+02,-2.411453200983793010e-03
8.343105273576220497e+02,6.535114284803578144e-04
8.350587844476103783e+02,-1.647772734114427706e-03
8.358069651940604672e+02,-1.443821155530322642e-03
8.365550695969723165e+02,1.219850291100610384e-03
8.373030976563459262e+02,-9.594166746618171260e-04
8.380510493721812963e+02,1.362090365427115479e-03
8.387989247444784269e+02,6.198779564958734056e-04
8.395467237732373178e+02,2.879331994977141207e-04
8.402944464584579691e+02,-6.349055181220641941e-05
8.410420928001403809e+02,-2.159638578132172526e-03
8.417896627982845530e+02,-9.525867934647713753e-04
8.425371564528904855e+02,-2.537865929554072864e-03
8.432845737639581785e+02,4.051141611706166046e-04
8.440319147314876318e+02,2.653054641636010125e-03
8.447791793554788455e+02,-8.810996123154168913e-05
8.455263676359318197e+02,9.976057462091070249e-04
8.462734795728465542e+02,2.718521124508432862e-04
8.470205151662230492e+02,1.612227130558196997e-03
8.477674744160613045e+02,1.878659726740394831e-03
8.485143573223613203e+02,-2.208336059674742557e-04
8.492611638851230964e+02,-2.288236347942174120e-03
8.500078941043466330e+02,-2.182470718517848240e-03
8.507545479800319299e+02,-1.503287939932818063e-03
8.515011255121789873e+02,1.561871024877259373e-03
8.522476267007878050e+02,2.115919855466552590e-04
8.529940515458583832e+02,8.354013612128508015e-04
8.537404000473907217e+02,-9.449931796143840046e-04
8.544866722053848207e+02,2.782119156526929871e-04
8.552328680198406801e+02,4.619274530779371446e-04
8.559789874907582998e+02,-2.225171135889159046e-03
8.567250306181376800e+02,5.851137314815124668e-04
8.574709974019788206e+02,-3.650116177512652271e-03
8.582168878422817215e+02,6.620707919193780100e-04
8.589627019390463829e+02,1.218137823593701263e-03
8.597084396922728047e+02,-1.466009982045601845e-03
8.604541011019609869e+02,4.083599447901598012e-05
8.611996861681109294e+02,-3.338571905511233950e-04
8.619451948907226324e+02,1.931671223009856497e-03
8.626906272697960958e+02,3.613093121894395132e-03
8.634359833053313196e+02,-1.235784305539278094e-03
8.641812629973283038e+02,1.373832242593797659e-03
8.649264663457870483e+02,1.655944426505073785e-03
8.656715933507075533e+02,-8.805642194662510747e-04
8.664166440120898187e+02,-1.969909630394894862e-04
8.671616183299338445e+02,1.980900814645414343e-04
8.679065163042396307e+02,7.840978287163569149e-04
8.686513379350071773e+02,5.718658806314058651e-04
8.693960832222364843e+02,-9.927395404794037148e-04
8.701407521659275517e+02,-3.415597897063360477e-03
8.708853447660803795e+02,6.387603072686154349e-04
8.716298610226949677e+02,-1.157034355656616498e-04
8.723743009357713163e+02,1.131174674995238938e-03
8.731186645053094253e+02,2.277674586698696935e-03
8.738629517313092947e+02,1.103434226832344933e-04
8.746071626137709245e+02,2.201257861635275148e-03
8.753512971526943147e+02,9.306181842794192249e-05
8.760953553480794653e+02,-6.892030459413334142e-04
8.768393371999263763e+02,1.681009609353467660e-03
8.775832427082350478e+02,-4.113119171331724999e-04
8.783270718730054796e+02,-1.768369039157891009e-03
8.790708246942376718e+02,-1.108023796940749151e-04
8.798145011719316244e+02,-2.575505228274987957e-04
8.805581013060873374e+02,-9.431293030275345046e-04
8.813016250967048109e+02,-1.108978460226062168e-03
8.820450725437840447e+02,-4.237503601878245263e-04
8.827884436473250389e+02,-3.470018196436441826e-04
8.835317384073277935e+02,-8.425173396877649878e-04
8.842749568237923086e+02,-2.232967183970480107e-04
8.850180988967185840e+02,3.716187019272565450e-04
8.857611646261066198e+02,-4.775507723298044738e-04
8.865041540119564161e+02,-1.718988748437233482e-03
8.872470670542679727e+02,1.726981495393298260e-03
8.879899037530412897e+02,1.893825268794113725e-03
8.887326641082763672e+02,-3.185618225181041652e-04
8.894753481199732050e+02,-9.790330965171456512e-04
8.902179557881318033e+02,1.240185503803559186e-03
8.909604871127521619e+02,-1.152367631664708014e-03
8.917029420938342810e+02,-1.231101703171644246e-03
8.924453207313781604e+02,-1.467053167420795390e-03
8.931876230253838003e+02,-1.049697440149710559e-03
8.939298489758512005e+02,3.074976718033806122e-04
8.946719985827803612e+02,8.965141420711475462e-04
8.954140718461712822e+02,-5.227484162495521502e-04
8.961560687660239637e+02,-9.128088560357294767e-04
8.968979893423384055e+02,-1.252523068050681587e-03
8.976398335751146078e+02,1.428829806474962716e-03
8.983816014643525705e+02,1.112387291653527122e-03
8.991232930100522935e+02,2.883402414849411954e-04
8.998649082122137770e+02,1.977664029781278643e-03
9.006064470708370209e+02,-3.212421362601691754e-04
9.013479095859220251e+02,-1.100749941830292400e-03
9.020892957574687898e+02,-8.406855655191947108e-04
9.028306055854773149e+02,-2.097564089702519396e-04
9.035718390699476004e+02,1.000403832739804599e-03
9.043129962108796462e+02,4.516503673115401796e-04
9.050540770082734525e+02,2.188908304975645258e-03
9.057950814621290192e+02,1.367235889483287004e-03
9.065360095724463463e+02,2.639148897310650277e-03
9.072768613392254338e+02,-4.237249188856262450e-03
9.080176367624662817e+02,9.966593455270622570e-04
9.087583358421688899e+02,-1.019005861620847497e-03
9.094989585783332586e+02,9.705444471665991557e-04
9.102395049709593877e+02,7.491844321371177173e-04
9.109799750200472772e+02,1.736078170951560473e-03
9.117203687255969271e+02,-8.526522221063981277e-04
9.124606860876083374e+02,-1.699347639323445236e-04
9.132009271060815081e+02,7.353357090332801604e-04
9.139410917810164392e+02,7.878799384883894419e-04
9.146811801124131307e+02,8.152929779295936541e-04
9.154211921002715826e+02,-1.286354008491974454e-03
9.161611277445917949e+02,4.272674305690893348e-04
9.169009870453737676e+02,-6.233685276815226217e-04
9.176407700026175007e+02,-1.050900563399403964e-03
9.183804766163229942e+02,-1.048187509098852388e-03
9.191201068864902481e+02,4.243857065343803470e-03
9.198596608131192625e+02,9.743075109366339248e-04
9.205991383962100372e+02,-1.576851815350277519e-04
9.213385396357625723e+02,4.364776255617597300e-04
9.220778645317768678e+02,1.295543330941506532e-03
9.228171130842529237e+02,3.494688074127116906e-04
9.235562852931907400e+02,-1.206032154212666185e-03
9.242953811585903168e+02,2.405107141089768419e-03
9.250344006804516539e+02,3.365470274978576981e-04
9.257733438587747514e+02,1.277063348281926025e-03
9.265122106935596094e+02,-3.530847403376835558e-03
9.272510011848062277e+02,-2.613039064933930788e-03
9.279897153325146064e+02,1.450837758052658799e-03
9.287283531366847456e+02,-2.001860314635894866e-03
9.294669145973166451e+02,7.850952682911804814e-04
9.302053997144103050e+02,3.066193711296794078e-03
9.309438084879657254e+02,6.596569783712258328e-04
9.316821409179829061e+02,1.887056192339975347e-03
9.324203970044618472e+02,-2.120368602466005115e-03
9.331585767474025488e+02,7.693242094181096391e-04
9.338966801468050107e+02,-1.479108862412203962e-03
9.346347072026692331e+02,-1.555990049853184232e-03
9.353726579149952158e+02,-4.103069095684475087e-05
9.361105322837829590e+02,3.893362840925451707e-04
9.368483303090324625e+02,1.717176879439841208e-03
9.375860519907437265e+02,2.138960813009793682e-03
9.383236973289167508e+02,-3.703322703425548923e-04
9.390612663235515356e+02,-2.086122614191943114e-03
9.397987589746480808e+02,1.934721452400589570e-03
9.405361752822063863e+02,1.456249208560245201e-03
9.412735152462264523e+02,-3.025879795859554022e-03
9.420107788667082787e+02,4.377816217139285371e-04
9.427479661436518654e+02,3.098588539496294203e-04
9.434850770770572126e+02,1.989198438586137208e-03
9.442221116669243202e+02,1.448995363214855558e-03
9.449590699132531881e+02,-6.814568032105228212e-04
9.456959518160438165e+02,2.559773432819545391e-03
9.464327573752962053e+02,-3.968997717826994176e-04
9.471694865910103545e+02,4.325787237818845554e-04
9.479061394631862640e+02,1.673920321392241561e-04
9.486427159918239340e+02,1.231733945467827773e-03
9.493792161769233644e+02,-1.269021281374627108e-03
9.501156400184845552e+02,7.766684301167003923e-04
9.508519875165075064e+02,1.133542660878061881e-03
9.515882586709922180e+02,4.458620571389237952e-04
9.523244534819386899e+02,-1.374372004388835222e-03
9.530605719493469223e+02,-1.480238236768238735e-03
9.537966140732169151e+02,-1.346761915915317687e-03
9.545325798535486683e+02,7.077057359550220639e-05
9.552684692903421819e+02,1.144785913232304608e-03
9.560042823835974559e+02,1.664843266898641261e-04
9.567400191333144903e+02,-1.813366419317175016e-03
9.574756795394932851e+02,1.920445543366011698e-03
9.582112636021338403e+02,-1.800930682298806929e-03
9.589467713212361559e+02,2.331400671345740250e-03
9.596822026968002319e+02,-3.165613523105292870e-03
9.604175577288260683e+02,-9.902583336418580018e-05
9.611528364173136652e+02,9.102244389027625004e-04
9.618880387622630224e+02,-1.004167294271773869e-04
9.626231647636741400e+02,-3.459464919258081750e-03
9.633582144215470180e+02,4.696325442660187477e-04
9.640931877358816564e+02,-8.449081482428955070e-04
9.648280847066780552e+02,-1.438270965066879015e-03
9.655629053339362144e+02,-9.946602450006114537e-04
9.662976496176561341e+02,1.094207292957505295e-03
9.670323175578378141e+02,-1.630975270171752811e-03
9.677669091544812545e+02,2.048498875986015655e-03
9.685014244075864553e+02,-5.093765499122326901e-04
9.692358633171534166e+02,8.775127239345481556e-04
9.699702258831821382e+02,1.804931670443932212e-03
9.707045121056726202e+02,4.760601915184681232e-03
9.714387219846248627e+02,-9.843338416748448338e-04
9.721728555200388655e+02,-1.179758711254086379e-03
9.729069127119146287e+02,-6.353868093698089581e-04
9.736408935602521524e+02,-6.522972206466359779e-04
9.743747980650514364e+02,-2.353881050544348597e-03
9.751086262263124809e+02,-5.032133768492208503e-04
9.758423780440352857e+02,2.537335073220292614e-03
9.765760535182198510e+02,3.369963369963535627e-04
9.773096526488661766e+02,3.362484699219847606e-03
9.780431754359742627e+02,2.394743537934229671e-03
9.787766218795441091e+02,-9.373488147073061327e-04
9.795099919795757160e+02,-2.636150306281059841e-03
9.802432857360690832e+02,-6.734522078517546362e-04
9.809765031490242109e+02,1.120353602013568484e-03
9.817096442184410989e+02,6.037712481035129031e-04
9.824427089443197474e+02,-2.413187915256465033e-03
9.831756973266601562e+02,-3.481067738413390344e-04
9.839086093654623255e+02,7.673860911271424001e-04
9.846414450607262552e+02,1.930501930501926644e-03
9.853742044124519452e+02,2.300928589037409822e-04
9.861068874206393957e+02,9.292754969963956668e-04
9.868394940852886066e+02,3.470204393378417684e-03
9.875720244063995779e+02,5.002918369048092728e-04
9.883044783839723095e+02,-8.392782207302662556e-04
9.890368560180068016e+02,6.113715100876104813e-04
9.897691573085030541e+02,0.000000000000000000e+00
9.905013822554610670e+02,3.039619872825083391e-03
9.912335308588808402e+02,1.401206101454444131e-03
9.919656031187623739e+02,-5.938349138938647798e-04
9.926975990351056680e+02,-5.275796827244327858e-04
9.934295186079107225e+02,-3.470192869667876323e-04
9.941613618371775374e+02,2.233777647575818648e-03
9.948931287229061127e+02,-2.748468973658990677e-03
9.956248192650964484e+02,8.566267528259396968e-04
9.963564334637485445e+02,3.820186470488096120e-03
9.970879713188624009e+02,-5.177643399470577279e-03
9.978194328304380178e+02,-4.715864246251033620e-03
9.985508179984753951e+02,2.116444373452597283e-03
9.992821268229745328e+02,2.029921036073023544e-05
1.000013359303935431e+03,5.533353827236187072e-04
1.000744515441358089e+03,-1.256307280403712312e-03
1.001475595235242508e+03,6.206168931918165654e-04
1.002206598685588688e+03,6.878725976570132516e-04
1.002937525792396627e+03,2.240683196989889936e-03
1.003668376555666327e+03,7.092351006898756083e-04
1.004399150975397788e+03,-9.386801720185911080e-04
1.005129849051591009e+03,-4.437935472423326644e-05
1.005860470784245990e+03,3.136622305865532923e-03
1.006591016173362732e+03,-9.499253630071979870e-04
1.007321485218941234e+03,3.876671956472454994e-03
1.008051877920981497e+03,0.000000000000000000e+00
1.008782194279483519e+03,-1.772525849335293557e-03
1.009512434294447303e+03,-1.533847668322652069e-03
1.010242597965872847e+03,7.856911771502161912e-04
1.010972685293760151e+03,5.760044956448440168e-03
1.011702696278109215e+03,3.427977020733385949e-03
1.012432630918920040e+03,-2.423108296147002960e-03
1.013162489216192625e+03,-3.157691751434210659e-03
1.013892271169926971e+03,-2.689735388194280929e-03
1.014621976780123077e+03,1.038045577443025280e-03
1.015351606046780944e+03,7.927927927927624907e-04
1.016081158969900571e+03,2.520524269047919041e-03
1.016810635549481958e+03,1.138896966172309178e-03
1.017540035785525106e+03,-1.399666044592962066e-03
1.018269359678030014e+03,4.727426538280177226e-04
1.018998607226996683e+03,1.913875598086089980e-03
1.019727778432425112e+03,5.929356677524477703e-03
1.020456873294315301e+03,-2.822006472491978002e-03
1.021185891812667251e+03,-4.025828039630807709e-03
1.021914833987480961e+03,1.679128951856179164e-03
1.022643699818756431e+03,-2.297636339627651125e-03
1.023372489306493662e+03,1.965680284757964635e-03
1.024101202450692654e+03,-2.159768904728132100e-04
1.024829839251353405e+03,1.178954294957956783e-03
1.025558399708475918e+03,-2.725714446286664483e-03
1.026286883822060190e+03,-1.857886011547460470e-03
1.027015291592106223e+03,-8.169219547775607992e-04
1.027743623018614016e+03,-4.757798328822726575e-04
1.028471878101583570e+03,-8.415484491464120254e-04
1.029200056841014884e+03,9.746885565471430368e-04
1.029928159236907959e+03,-2.160693891408715928e-04
1.030656185289262794e+03,-5.303715720836876812e-04
1.031384134998079389e+03,-1.742933198124019256e-03
1.032112008363357745e+03,2.906788967120821354e-04
1.032839805385097861e+03,-3.075498528390507857e-03
1.033567526063299738e+03,2.497721672798491888e-03
1.034295170397963375e+03,-3.614248479582915508e-03
1.035022738389088772e+03,-1.312755011531052673e-03
1.035750230036675930e+03,-9.380186160616865720e-04
1.036477645340724848e+03,-8.107610097659811998e-03
1.037204984301235527e+03,-5.049749382808332854e-03
1.037932246918207966e+03,5.770318687535302971e-03
1.038659433191642165e+03,5.179160592342468838e-03
1.039386543121538125e+03,-6.272296052374226605e-04
1.040113576707895845e+03,3.722233340003988644e-03
1.040840533950715326e+03,-4.121332014506151609e-04
1.041567414849996567e+03,-1.774997886907270228e-03
1.042294219405739568e+03,1.851851851851882280e-03
1.043020947617944330e+03,-1.020181858505164740e-03
1.043747599486610852e+03,-3.351601068888987456e-03
1.044474175011739135e+03,-2.349256068911564910e-03
1.045200674193329178e+03,-3.294892915979286130e-04
1.045927097031380981e+03,1.098428769282233652e-03
1.046653443525894545e+03,7.150501021500166310e-03
1.047379713676869869e+03,2.087163941758229946e-03
1.048105907484306954e+03,-2.336329930417990752e-03
1.048832024948205799e+03,6.145833333333294846e-03
1.049558066068566404e+03,-3.387461017313686540e-03
1.050284030845388770e+03,7.839052735445717346e-03
1.051009919278672896e+03,4.029283241586689712e-03
1.051735731368418783e+03,4.070004070003685470e-04
1.052461467114626430e+03,1.187718985688035467e-03
1.053187126517295837e+03,-3.643872221548161150e-04
1.053912709576427005e+03,-2.039555006180471253e-03
1.054638216292019933e+03,1.324586855052323209e-03
1.055363646664074622e+03,-1.935608748950823355e-04
1.056089000692591071e+03,-8.624693159954954780e-03
1.056814278377569281e+03,2.980424033055650845e-03
1.057539479719009250e+03,-5.575301414732836136e-03
1.058264604716910981e+03,4.825432869713264239e-03
1.058989653371274471e+03,-1.530835398746210885e-03
1.059714625682099722e+03,-2.228495023027798894e-03
1.060439521649386734e+03,-9.551243177683410579e-03
1.061164341273135506e+03,-7.259808464627814928e-03
1.061889084553346038e+03,6.114077857750976897e-03
1.062613751490018331e+03,4.344048653344922961e-03
1.063338342083152384e+03,-1.132686084142298100e-03
1.064062856332748197e+03,2.467308166790083135e-03
1.064787294238805771e+03,1.438361959556599956e-03
1.065511655801325105e+03,-3.901170351105376355e-03
1.066235941020306200e+03,-2.656983438136251152e-04
1.066960149895749055e+03,6.678097644616909356e-03
1.067684282427653670e+03,5.403425222089919266e-03
1.068408338616020046e+03,-4.710315591144542680e-03
1.069132318460848182e+03,-3.790750568612999416e-04
1.069856221962138079e+03,3.877847794474531540e-04
1.070580049119889736e+03,2.169197396963085112e-03
1.071303799934103154e+03,7.432703897147452388e-03
1.072027474404778332e+03,-3.806584362139986411e-03
1.072751072531915270e+03,2.929789682954875296e-03
1.073474594315513968e+03,4.301537799763388570e-03
1.074198039755574428e+03,-5.538938739337861961e-04
1.074921408852096647e+03,-3.038145605941178218e-03
1.075644701605080627e+03,-2.071823204419898090e-03
1.076367918014526367e+03,9.346886318495339907e-04
1.077091058080433868e+03,8.616619452313512006e-03
1.077814121802803129e+03,2.771084337349405402e-03
1.078537109181634150e+03,1.105651105651084265e-03
1.079260020216926932e+03,4.884157795867261065e-03
1.079982854908681475e+03,1.267118904390118761e-02
1.080705613256897777e+03,1.962836953677049578e-03
1.081428295261575840e+03,-6.721333512569316326e-04
1.082150900922715664e+03,4.945054945054927487e-03
1.082873430240317248e+03,8.750882145377558707e-03
1.083595883214380592e+03,-1.441337561256750277e-03
1.084318259844905697e+03,4.236669101533974136e-03
1.085040560131892562e+03,-5.669949268874985293e-03
1.085762784075341187e+03,1.513775355737045913e-04
1.086484931675251573e+03,-2.627511591962949922e-03
1.087207002931623720e+03,2.499999999999946709e-03
1.087928997844457626e+03,-7.245210111093136618e-03
1.088650916413753293e+03,2.774151436031324636e-03
1.089372758639510721e+03,1.080452127659570216e-02
1.090094524521729909e+03,2.228698782787641441e-03
1.090816214060410857e+03,5.284481240092064880e-04
1.091537827255553566e+03,7.493309545049009479e-03
1.092259364107158035e+03,4.007285974499064096e-03
1.092980824615224265e+03,7.593998888683062276e-03
1.093702208779752254e+03,6.728971962616792091e-03
1.094423516600742005e+03,-6.872852233676951528e-03
1.095144748078193516e+03,1.937233630375789772e-04
1.095865903212106787e+03,3.749753305703595885e-03
1.096586982002481818e+03,4.838709677419394950e-03
1.097307984449318610e+03,1.442109600329644081e-03
1.098028910552617162e+03,-6.995972016111906555e-03
1.098749760312377475e+03,-1.518438177874115169e-03
1.099470533728599548e+03,-9.316770186335476822e-03
1.100191230801283382e+03,6.781193490054127082e-04
1.100911851530428976e+03,2.725414490120425803e-03
1.101632395916036330e+03,-4.633920296570837039e-03
1.102352863958105445e+03,4.712535344014723293e-04
1.103073255656636320e+03,-9.354761333653094368e-03
1.103793571011628956e+03,-2.928972418843045489e-03
1.104513810023083352e+03,6.462838677603777171e-03
1.105233972690999508e+03,-8.691206543967266995e-03
1.105954059015377425e+03,7.993811242908765990e-03
1.106674068996217102e+03,-7.991475759190347361e-04
1.107394002633518539e+03,-1.094990418833763357e-03
1.108113859927281737e+03,-2.800336040324813425e-03
1.108833640877506696e+03,-5.730659025787954164e-03
1.109553345484193414e+03,-8.442503639010112693e-03
1.110272973747341894e+03,1.491664229306810530e-02
1.110992525666952133e+03,-8.693045563549217647e-03
1.111712001243024133e+03,2.125721226844845546e-03
1.112431400475557894e+03,1.015072285450635547e-02
1.113150723364553414e+03,-6.311139160617429411e-04
1.113869969910010695e+03,-7.140538786108319158e-03
1.114589140111929737e+03,-2.310231023102238268e-03
1.115308233970310539e+03,-4.753820033955857838e-03
1.116027251485153101e+03,1.374570446735390306e-02
1.116746192656457424e+03,9.119607155384068520e-03
1.117465057484223507e+03,0.000000000000000000e+00
1.118183845968451351e+03,-2.943340691685003563e-03
1.118902558109140955e+03,1.874765654293231165e-03
1.119621193906292319e+03,-9.223674096848544224e-03
1.120339753359905444e+03,-9.298721425804012952e-03
1.121058236469980329e+03,6.703470031545699648e-03
1.121776643236516975e+03,9.603841536614643459e-03
1.122494973659515381e+03,1.275720164609051022e-02
1.123213227738975547e+03,-8.081667375584800084e-03
1.123931405474897474e+03,-4.349717268377517598e-03
1.124649506867281161e+03,0.000000000000000000e+00
1.125367531916126609e+03,-1.370488807674652421e-03
1.126085480621433817e+03,-2.361832782239003947e-03
1.126803352983202785e+03,5.198487712665400551e-03
1.127521149001433514e+03,3.866602223296267127e-03
1.128238868676126003e+03,-2.218860312657588985e-02
1.128956512007280253e+03,1.500750375187598351e-03
1.129674078994896263e+03,1.338136901698405712e-02
1.130391569638974033e+03,-1.538461538461488587e-03
1.131108983939513564e+03,9.958071278825975092e-03
1.131826321896514855e+03,-1.905280348394122747e-02
1.132543583509977907e+03,-1.294316263365224984e-02
1.133260768779902719e+03,5.701254275940481620e-04
1.133977877706289291e+03,-1.753360607831710993e-03
1.134694910289137624e+03,1.736526946107785907e-02
1.135411866528447717e+03,8.599508599508642881e-03
1.136128746424219571e+03,9.328358208955278563e-03
1.136845549976453185e+03,6.451612903225489859e-04
1.137562277185148560e+03,9.708737864077665591e-03
1.138278928050305694e+03,-5.256241787122251097e-03
1.138995502571924590e+03,-5.344021376085583697e-03
1.139712000750005245e+03,1.773533424283768589e-02
1.140428422584547661e+03,2.170868347338938964e-02
1.141144768075551838e+03,4.354136429608135295e-03
1.141861037223017775e+03,2.551020408163262587e-02
1.142577230026945472e+03,-3.767897513187623559e-03
1.143293346487334929e+03,-1.889763779527564580e-02
1.144009386604186147e+03,1.762820512820517660e-02
1.144725350377499126e+03,8.025682182985605095e-03
1.145441237807273865e+03,1.394585726004926585e-02
1.146157048893510364e+03,2.680067001675046079e-02
1.146872783636208624e+03,2.951096121416529883e-02
1.147588442035368644e+03,-3.514938488576424547e-03
1.148304024090990424e+03,1.070472792149868013e-02
1.149019529803073965e+03,-7.414272474513428079e-03
1.149734959171619266e+03,7.504690431519689398e-03
1.150450312196626328e+03,2.898550724637627418e-03
1.151165588878095150e+03,-3.952569169960451489e-03
1.151880789216025732e+03,-9.090909090909038426e-03
1.152595913210418075e+03,-2.051282051282132812e-03
1.153310960861272179e+03,1.956745623069000573e-02
1.154025932168588042e+03,-6.543075245365237436e-03
1.154740827132365666e+03,-1.988950276243084403e-02
1.155455645752605051e+03,-2.033898305084735902e-02
1.156170388029306196e+03,-4.994192799070851230e-02
1.156885053962469101e+03,2.306805074971163272e-02
1.157599643552093767e+03,-3.345280764635605308e-02
1.158314156798180193e+03,0.000000000000000000e+00
1.159028593700728379e+03,4.907975460122671052e-03
1.159742954259738326e+03,3.921568627450966460e-03
1.160457238475210033e+03,-6.443298969072142057e-03
1.161171446347143501e+03,2.607561929595825223e-02
1.161885577875538729e+03,-1.881720430107525210e-02
1.162599633060395718e+03,8.196721311475418936e-03
1.163313611901714467e+03,-1.390820584144636385e-03
1.164027514399494976e+03,-5.747126436781657688e-03
1.164741340553737246e+03,-1.897810218978102093e-02
1.165455090364441276e+03,2.761627906976749092e-02
1.166168763831607066e+03,3.048780487804880757e-03
1.166882360955234617e+03,7.776049766718529099e-03
1.167595881735323928e+03,4.420731707317071546e-02
1.168309326171875000e+03,1.600000000000001421e-02
1.169022694264887832e+03,2.419354838709675271e-02
1.169735986014362425e+03,-5.059021922428241780e-03
1.170449201420298778e+03,2.030456852791873157e-02
1.171162340482696891e+03,2.716468590831921937e-02
1.171875403201556765e+03,-1.964285714285707307e-02
1.172588389576878399e+03,7.029876977152849093e-03
1.173301299608661793e+03,-1.967799642218248657e-02
1.174014133296906948e+03,8.944543828264706065e-03
1.174726890641613863e+03,4.821428571428576504e-02
1.175439571642782539e+03,7.272727272727319558e-03
1.176152176300412975e+03,-1.691729323308277522e-02
1.176864704614505172e+03,-2.767527675276748589e-02
1.177577156585059129e+03,-1.869158878504673105e-02
1.178289532212074846e+03,3.351955307262566297e-02
1.179001831495552324e+03,1.919385796545158840e-03
1.179714054435491562e+03,1.000000000000000000e+00
1.180426201031892560e+03,1.000000000000000000e+00
1.181138271284755319e+03,1.000000000000000000e+00
1.181850265194079839e+03,-3.999999999999999112e-01
